# calibrated imu data gx(rad/s), gy(rad/s), gz(rad/s), ax(m/s^2), ay(m/s^2), az(m/s^2)
9.299482839999999851e+05 -8.196212155424276169e-02 2.886573418071773645e-02 6.874407086694817037e-03 9.807336269387823435e+00 -3.179398492648888297e-02 1.649331680526618715e+00 3.281835937500000000e+01
9.349273609999999171e+05 -7.558801245723606455e-02 2.889264111403104518e-02 6.822829549060830528e-03 9.810936686849027311e+00 -1.011725958215181631e-02 1.662203816579736149e+00 3.283593750000000000e+01
9.399074390000000130e+05 -6.847473676140902743e-02 2.891637855528579604e-02 8.107028002837461667e-03 9.849341139768524656e+00 1.878201925446387754e-02 1.613458426410499413e+00 3.283593750000000000e+01
9.448865159999999451e+05 -6.233332496514070592e-02 2.459025943684237450e-02 1.047758075161733110e-02 9.880544757765616026e+00 2.118777447209818643e-02 1.614199266616350714e+00 3.283984375000000000e+01
9.498655940000000410e+05 -5.620018358543465292e-02 2.258796289638804328e-02 1.096702869361713614e-02 9.891346010149225876e+00 3.925101081096538103e-02 1.622270506781519295e+00 3.283984375000000000e+01
9.548456709999999730e+05 -4.957493500183291629e-02 2.145085635365227145e-02 1.252488343080222603e-02 9.861342531305869130e+00 2.600662313343926613e-02 1.648556201651749653e+00 3.283398437500000000e+01
9.598247490000000689e+05 -4.392658937035168881e-02 1.972583127602263453e-02 1.516472663606101799e-02 9.855341835537196005e+00 9.147235639192952128e-03 1.639242129301164086e+00 3.283398437500000000e+01
9.648038260000000009e+05 -3.803336308288427642e-02 1.655870632306022383e-02 1.699922890662421832e-02 9.834939469923712707e+00 -2.336650343869650648e-02 1.645417620850824658e+00 3.281640625000000000e+01
9.697829039999999804e+05 -3.385698158521335127e-02 1.338559202338624604e-02 1.857927198816904102e-02 9.803735851926621336e+00 -4.504074673597957545e-02 1.641158284055680205e+00 3.281640625000000000e+01
9.747629810000000289e+05 -3.040689815012432434e-02 1.105994503475806953e-02 2.392109511364245295e-02 9.815737243463964035e+00 -5.467606992669715726e-02 1.675087708047193313e+00 3.283398437500000000e+01
9.797420590000000084e+05 -2.819224209823609911e-02 9.322941263705307111e-03 2.605201994086450007e-02 9.818137521771433285e+00 -3.661207818220491017e-02 1.662115103114047088e+00 3.283398437500000000e+01
9.847211360000000568e+05 -2.303646477889268601e-02 8.177115773382421030e-03 2.815846808503554705e-02 9.852941557229728531e+00 -5.708797630442141724e-02 1.625196852378703483e+00 3.281054687500000000e+01
9.897012140000000363e+05 -1.886702368651564654e-02 9.635333870340375556e-03 2.946479239197805078e-02 9.846940861461057182e+00 -5.347459521404074323e-02 1.632332246308075163e+00 3.281054687500000000e+01
9.946802909999999683e+05 -1.395418892601926752e-02 8.484709015040923369e-03 3.237826063504836011e-02 9.851741418075992129e+00 -5.227074636941997365e-02 1.671059463993672667e+00 3.281054687500000000e+01
9.996593690000000643e+05 -1.272854569268503516e-02 1.079990289922035801e-02 3.343903701168760012e-02 9.798935295311682836e+00 -9.200725476976656658e-02 1.635367225256376233e+00 3.281640625000000000e+01
1.004638446000000113e+06 -1.126034751993162941e-02 1.340927599643823576e-02 3.369245745658683289e-02 9.783333486313138039e+00 -1.353599500528155364e-01 1.610915312391511423e+00 3.281640625000000000e+01
1.009618524000000092e+06 -1.053166682101921298e-02 1.573369356529482482e-02 3.234209229376559802e-02 9.784533625466870888e+00 -1.702841926122684590e-01 1.647356905730518850e+00 3.280664062500000000e+01
1.014597601000000024e+06 -1.054412756247342237e-02 2.008568473500104562e-02 2.992194575879919549e-02 9.755730285777250543e+00 -2.003886152745765759e-01 1.647770184244395697e+00 3.280664062500000000e+01
1.019576678999999887e+06 -1.398352120026245121e-02 2.268188915706079861e-02 2.860496853774405213e-02 9.717325832857749646e+00 -2.220622110813239569e-01 1.637732987115334549e+00 3.279492187500000000e+01
1.024556756999999983e+06 -1.570603330384785778e-02 2.470657805735039167e-02 2.727477672223815180e-02 9.670520405862113478e+00 -2.846805886517001505e-01 1.611371882794881083e+00 3.279492187500000000e+01
1.029535833999999915e+06 -1.596117939329903118e-02 2.501123578270800576e-02 2.378793380188708173e-02 9.694523188936800651e+00 -3.003383935182007414e-01 1.612220566661921151e+00 3.279882812500000000e+01
1.034514912000000011e+06 -1.745461317957437003e-02 3.024021513600099950e-02 1.815853688727604720e-02 9.669320266708380629e+00 -3.256260179058646509e-01 1.619635271170823732e+00 3.279882812500000000e+01
1.039494988999999943e+06 -1.771422698012380115e-02 3.112990669569243654e-02 1.332929505549050771e-02 9.694523188936800651e+00 -3.027469545281568641e-01 1.614572780130719920e+00 3.279492187500000000e+01
1.044474067000000039e+06 -1.773135933006836362e-02 3.346878720538576379e-02 8.228044858903247466e-03 9.707724719627877974e+00 -2.762539704846219690e-01 1.641416473577622659e+00 3.279492187500000000e+01
1.049453144000000088e+06 -1.848101182879654386e-02 3.579954375835948249e-02 4.206127713260766031e-03 9.729327224395094120e+00 -2.461489003317780533e-01 1.669317436090400175e+00 3.278906250000000000e+01
1.054432222000000067e+06 -1.774985843568851335e-02 3.407766276491797086e-02 1.787082413607378115e-03 9.774932512236997439e+00 -2.208631105006322315e-01 1.639282944074987647e+00 3.278906250000000000e+01
1.059412299000000115e+06 -1.725989322632406897e-02 3.379160750859915019e-02 1.515105294402590078e-03 9.768931816468326090e+00 -1.823255947658880549e-01 1.642876574961080305e+00 3.279492187500000000e+01
1.064391377000000095e+06 -1.603666937372748291e-02 3.351242138135791804e-02 4.321405734036172508e-04 9.748529450854844569e+00 -2.112264923288432739e-01 1.663157591838872129e+00 3.279492187500000000e+01
1.069370454000000143e+06 -1.554919703391498959e-02 3.178699585058185340e-02 -1.448230076501107536e-03 9.768931816468326090e+00 -2.148411684002954902e-01 1.682860584704486406e+00 3.283398437500000000e+01
1.074350532000000123e+06 -1.604025161274864192e-02 3.178618091412285102e-02 -1.712608022756785184e-03 9.772532233929529966e+00 -1.979815650758706691e-01 1.694559199184758391e+00 3.283398437500000000e+01
1.079329609000000171e+06 -1.775349759447316517e-02 2.744325832940931048e-02 -2.767066066615966533e-03 9.772532233929529966e+00 -1.799173575011998039e-01 1.688673495189652929e+00 3.283398437500000000e+01
1.084308686999999918e+06 -1.676764265110529395e-02 2.079793549039845799e-02 -4.109004162821953271e-03 9.773732373083262814e+00 -2.015945145058941068e-01 1.645169301431212538e+00 3.281835937500000000e+01
1.089288763999999966e+06 -1.578267317981454920e-02 1.646388695295650240e-02 -4.648592574302006994e-03 9.744929033393638917e+00 -2.449460227229608433e-01 1.622076473258734941e+00 3.281835937500000000e+01
1.094267841999999946e+06 -1.137058709015321967e-02 1.099810082075241072e-02 -7.629719217038978887e-03 9.696923467244269901e+00 -2.136304129899595505e-01 1.640364130460161940e+00 3.281640625000000000e+01
1.099246918999999994e+06 -8.673167051349954526e-03 6.100065727392419736e-03 -9.792594917873391827e-03 9.720926250318955297e+00 -2.593952304809115650e-01 1.640050150432883935e+00 3.281640625000000000e+01
1.104225996999999974e+06 -5.250795530284027568e-03 4.110227209580832874e-03 -1.437988924381291243e-02 9.682521797399457952e+00 -2.726388627528125719e-01 1.626482564971380773e+00 3.285937500000000000e+01
1.109206074000000022e+06 -1.334378708183224516e-03 1.538679449178453375e-03 -1.789709761036348962e-02 9.677721240784519452e+00 -2.834769556372578325e-01 1.639485430436171232e+00 3.285937500000000000e+01
1.114185152000000002e+06 1.177195643313339035e-04 1.865639280593881129e-03 -2.461797218065399362e-02 9.706524580474141572e+00 -2.545768134799277771e-01 1.669638001208910261e+00 3.279882812500000000e+01
1.119164229000000050e+06 1.341681911376436942e-03 1.585198325710629377e-03 -2.543259145250236636e-02 9.675320962477050202e+00 -2.160370315283082765e-01 1.679459889223289482e+00 3.279882812500000000e+01
1.124143307000000030e+06 2.805355453268078281e-03 -1.285587110112611231e-04 -2.893096980310053135e-02 9.698123606398002750e+00 -1.594378981810364304e-01 1.627392695920445886e+00 3.284570312500000000e+01
1.129123385000000009e+06 4.520058248533308926e-03 -1.273814618337077570e-03 -3.001689452847224049e-02 9.740128476778702193e+00 -1.245175405647983569e-01 1.622091495478672041e+00 3.284570312500000000e+01
1.134102462000000058e+06 5.014878788423864781e-03 -2.434283557051609460e-03 -2.894613690340182982e-02 9.719726111165218896e+00 -1.088600594435655822e-01 1.622368357225457025e+00 3.282226562500000000e+01
1.139081540000000037e+06 7.227005226353028222e-03 -5.033152734079882756e-03 -2.815593182341057099e-02 9.700523884705470223e+00 -9.079412522746599379e-02 1.612047196226068291e+00 3.282226562500000000e+01
1.144061617000000086e+06 9.928248145976675820e-03 -6.184307734339809445e-03 -2.710302796136731390e-02 9.672920684169582728e+00 -9.922160671525837028e-02 1.646526588156167481e+00 3.281054687500000000e+01
1.149040695000000065e+06 1.335673152002284439e-02 -5.586040378940823614e-03 -2.820485394391563511e-02 9.632115952942616133e+00 -1.353463527515639253e-01 1.633002189034079121e+00 3.281054687500000000e+01
1.154019771999999881e+06 1.900710891281389217e-02 -4.427305597087923678e-03 -2.342160547385937347e-02 9.627315396327679409e+00 -1.437758846260530632e-01 1.635423713115449651e+00 3.281054687500000000e+01
1.158999849999999860e+06 2.513971569546349233e-02 -3.830202815553504503e-03 -2.186179823082375073e-02 9.600912334945524762e+00 -2.063960967529473445e-01 1.629939640265766210e+00 3.282812500000000000e+01
1.163978926999999909e+06 3.102040775266239753e-02 -1.490326861846261175e-03 -2.191209492828868899e-02 9.558907464564823542e+00 -2.100051612397559886e-01 1.623471500846572102e+00 3.282812500000000000e+01
1.168958005000000121e+06 3.935310459562194052e-02 -6.986804177488981082e-06 -2.224956709085662565e-02 9.611713587329132835e+00 -1.955585434439485737e-01 1.594517163647518831e+00 3.281835937500000000e+01
1.173937081999999937e+06 4.916166194202647999e-02 5.516312831672254280e-03 -1.884680713377118871e-02 9.617714283097804184e+00 -2.316874981687366275e-01 1.560357166442499999e+00 3.281835937500000000e+01
1.178917159999999916e+06 6.142554549605724196e-02 4.403008576098258429e-03 -1.733457867987769907e-02 9.629715674635148659e+00 -2.425271018644321042e-01 1.559019416403663927e+00 3.284375000000000000e+01
1.183896236999999965e+06 6.828644535819142214e-02 7.613908774551137598e-03 -1.712547243250406998e-02 9.659719153478505405e+00 -2.425297997416646090e-01 1.564480330845245959e+00 3.284375000000000000e+01
1.188875315000000177e+06 7.834069534384494049e-02 1.053884397046264340e-02 -1.479505552790189547e-02 9.680121519091988702e+00 -2.341016707633362670e-01 1.523047488879142097e+00 3.286718750000000000e+01
1.193855391999999993e+06 8.447357951270093035e-02 1.257908150938035451e-02 -1.243189110161815360e-02 9.646517622787428081e+00 -2.413243321707042033e-01 1.476494081146584980e+00 3.286718750000000000e+01
1.198834469999999972e+06 8.889574731379148997e-02 1.113826186956002641e-02 -9.782464971962787428e-03 9.668120127554646004e+00 -2.798632508016092868e-01 1.495019796884369256e+00 3.281445312500000000e+01
1.203813547000000020e+06 8.987654663554670020e-02 1.431805076059051822e-02 -8.184021444097090356e-03 9.676521101630784827e+00 -2.979282137819052045e-01 1.477276937298420467e+00 3.281445312500000000e+01
1.208792625000000000e+06 8.986901471343292092e-02 1.664061851093758676e-02 -9.796780801726552926e-03 9.646517622787428081e+00 -3.159897234793435095e-01 1.480052906256120959e+00 3.282226562500000000e+01
1.213772702000000048e+06 8.814759197931670842e-02 1.895217760400502716e-02 -1.059061755177199103e-02 9.632115952942616133e+00 -3.557296851625477152e-01 1.484972503483785733e+00 3.282226562500000000e+01
1.218751780000000028e+06 8.348656171104956725e-02 2.009254389257680851e-02 -1.109096050393436513e-02 9.636916509557552857e+00 -4.147398615668295707e-01 1.475526394999288282e+00 3.283203125000000000e+01
1.223730856999999844e+06 7.759023446815949132e-02 2.557470763003418315e-02 -1.292814943722342923e-02 9.634516231250083607e+00 -4.568894634108828234e-01 1.486158161174473413e+00 3.283203125000000000e+01
1.228710935000000056e+06 7.046052817242927369e-02 2.846610073931245613e-02 -1.877757885496758594e-02 9.585310525946979965e+00 -4.797663684868045397e-01 1.519768432319793749e+00 3.284570312500000000e+01
1.233690013000000035e+06 6.358041088558276377e-02 3.135099976478913225e-02 -2.301891932925561463e-02 9.582910247639508938e+00 -5.050560432611651551e-01 1.506881166000853867e+00 3.284570312500000000e+01
1.238669090000000084e+06 5.621420458365014583e-02 3.162815556596593192e-02 -2.698492435593151384e-02 9.635716370403820008e+00 -4.882008644554015064e-01 1.530827331331168883e+00 3.284570312500000000e+01
1.243648167999999830e+06 4.688525695527995252e-02 3.189954196602268199e-02 -3.147175026932893388e-02 9.630915813788881508e+00 -4.580934201705929576e-01 1.613172410120622624e+00 3.279687500000000000e+01
1.248628245000000112e+06 4.099330375931749953e-02 3.246601276935433267e-02 -3.410826639177733099e-02 9.612913726482869237e+00 -4.303933498297582427e-01 1.667487865114869239e+00 3.279687500000000000e+01
1.253607323000000091e+06 3.731251804039280306e-02 3.389989843419003585e-02 -3.461688018257028099e-02 9.628515535481414034e+00 -4.303947527259190942e-01 1.662568648590706744e+00 3.284375000000000000e+01
1.258586399999999907e+06 3.142794978891554764e-02 3.445382096110148618e-02 -3.456994181351269457e-02 9.650118040248628404e+00 -4.267838536825923623e-01 1.668144781474637517e+00 3.284375000000000000e+01
1.263566477999999886e+06 2.897721809465985537e-02 3.270970270750919728e-02 -3.508478020029487388e-02 9.665719849247178530e+00 -4.123338905190166437e-01 1.674975257583632082e+00 3.284570312500000000e+01
1.268545555000000168e+06 2.481783853835570555e-02 2.979078226617967382e-02 -3.343762540237711633e-02 9.665719849247178530e+00 -3.990868049642580240e-01 1.706710492184606798e+00 3.284570312500000000e+01
1.273524632999999914e+06 2.359574079963547982e-02 2.977933371771701587e-02 -3.208597939938681587e-02 9.646517622787428081e+00 -3.545266996386411962e-01 1.690500007963936735e+00 3.280664062500000000e+01
1.278504709999999963e+06 2.213337709365593986e-02 2.831493173632642496e-02 -2.965728868414298225e-02 9.692122910629329624e+00 -3.436922758672321665e-01 1.720426795142775855e+00 3.280664062500000000e+01
1.283483787999999942e+06 1.675330329871429699e-02 2.653706282821365059e-02 -2.558644941799543410e-02 9.669320266708380629e+00 -3.641629940651623376e-01 1.738386376115724108e+00 3.284375000000000000e+01
1.288462864999999991e+06 1.259768970346704375e-02 2.245685851171060066e-02 -2.313291494126294007e-02 9.682521797399457952e+00 -3.605513396162104423e-01 1.741728099134758567e+00 3.284375000000000000e+01
1.293441942999999970e+06 6.968802138497390275e-03 2.010672399127569343e-02 -2.066949295289007699e-02 9.718525972011486047e+00 -3.220176009095917502e-01 1.730630805899381341e+00 3.279492187500000000e+01
1.298422020000000019e+06 3.556121103127335425e-03 1.486206630754055048e-02 -1.607380280593222188e-02 9.720926250318955297e+00 -3.208135362347922515e-01 1.752933130481246327e+00 3.279492187500000000e+01
1.303401097999999998e+06 -2.068796603393333045e-03 1.394879240627883328e-02 -1.146529638855822535e-02 9.711325137089080073e+00 -3.196083924090997730e-01 1.770699909882301082e+00 3.284960937500000000e+01
1.308380175000000047e+06 -8.177865227860924013e-03 8.980876040407904937e-03 -6.579775359368435564e-03 9.693323049783066025e+00 -2.979297245931553650e-01 1.772116413444111860e+00 3.284960937500000000e+01
1.313360253000000026e+06 -1.110290677043353907e-02 5.186442188725146930e-03 -2.258077328659778907e-03 9.677721240784519452e+00 -3.268310538164677648e-01 1.792330704870886304e+00 3.284960937500000000e+01
1.318339330000000075e+06 -1.476894277574419129e-02 1.109562463965139880e-03 -7.685580397280220022e-05 9.736528059317500094e+00 -3.304491831707775940e-01 1.783285741278230141e+00 3.281054687500000000e+01
1.323318407999999821e+06 -1.647231094343156593e-02 -1.806538122711371340e-03 3.160534174373952343e-03 9.772532233929529966e+00 -3.232267375935882203e-01 1.787484557010086572e+00 3.281054687500000000e+01
1.328297485000000102e+06 -1.646786340768962437e-02 -7.877240793800532881e-03 1.825859418276344973e-03 9.680121519091988702e+00 -3.593468432810538182e-01 1.845212838611758777e+00 3.282812500000000000e+01
1.333277563000000082e+06 -1.842394171503970030e-02 -1.395747734893581019e-02 7.754001229090222436e-04 9.651318179402364805e+00 -3.460971677641520583e-01 1.796232736474723035e+00 3.282812500000000000e+01
1.338256641000000061e+06 -1.890707675233171958e-02 -1.657023988380374943e-02 2.124117367123541655e-03 9.676521101630784827e+00 -3.653679220606761979e-01 1.779432444544611247e+00 3.284179687500000000e+01
1.343235717999999877e+06 -1.792960245874761910e-02 -1.915922553938035830e-02 -2.959041854551074796e-04 9.659719153478505405e+00 -3.605492892295138474e-01 1.784366274302284783e+00 3.284179687500000000e+01
1.348215795999999857e+06 -2.210016966500102931e-02 -2.032680896063441753e-02 -1.870909774388940586e-03 9.704124302166674099e+00 -3.521233185529715204e-01 1.743775394783179999e+00 3.281250000000000000e+01
1.353194872999999905e+06 -2.480080449875393667e-02 -2.293006301932668314e-02 -4.529520504406270645e-03 9.699323745551737375e+00 -3.701870944672850938e-01 1.773239618271076568e+00 3.281250000000000000e+01
1.358173951000000117e+06 -2.921318814997799634e-02 -2.439308048126120204e-02 -5.028824712449512027e-03 9.686122214860660051e+00 -3.725944684112588723e-01 1.753439122390489935e+00 3.283789062500000000e+01
1.363153027999999933e+06 -3.484922001763361005e-02 -2.471002709941090558e-02 -4.177826248865375292e-03 9.689722632321862150e+00 -3.424877795320754315e-01 1.707528154112998742e+00 3.283789062500000000e+01
1.368133106000000145e+06 -4.049158420471237613e-02 -2.415005037988086217e-02 -5.206253427857640906e-03 9.641717066172489581e+00 -3.629562315131304451e-01 1.719960095193346694e+00 3.278906250000000000e+01
1.373112182999999961e+06 -4.858517793869612106e-02 -2.331229746043608775e-02 -5.946833476065426990e-03 9.644117344479960607e+00 -3.617521668383310018e-01 1.721101805137615903e+00 3.278906250000000000e+01
1.378091261000000173e+06 -5.765598875541392415e-02 -2.392809296478675546e-02 -6.141108455978502509e-03 9.656118736017301529e+00 -3.376676358896628649e-01 1.691534908311638663e+00 3.284960937500000000e+01
1.383071337999999989e+06 -6.403406771086961324e-02 -2.539186051727325075e-02 -8.234615347345651190e-03 9.599712195791790137e+00 -3.280283198406414025e-01 1.715826590144384323e+00 3.284960937500000000e+01
1.388050415999999968e+06 -7.040838070526841963e-02 -2.801691194493328638e-02 -9.521742559898066852e-03 9.635716370403820008e+00 -3.304401183032764644e-01 1.751770464091121138e+00 3.283007812500000000e+01
1.393029493000000017e+06 -7.408436801343049050e-02 -3.236560393076690079e-02 -1.109702149047876556e-02 9.651318179402364805e+00 -3.328500822093934941e-01 1.679843668612526653e+00 3.283007812500000000e+01
1.398009571000000229e+06 -7.825535958351889643e-02 -3.266630263547737334e-02 -1.240468912878419337e-02 9.645317483633693456e+00 -3.364623841488811884e-01 1.719898676394245651e+00 3.283007812500000000e+01
1.402988647999999812e+06 -7.997314676515601684e-02 -3.526918164889364382e-02 -1.426619851713956978e-02 9.639316787865022107e+00 -3.051505514440052136e-01 1.711739512453316125e+00 3.282421875000000000e+01
1.407967726000000024e+06 -8.070618494194523040e-02 -3.874107998886155979e-02 -1.506125361616019766e-02 9.616514143944069559e+00 -3.003313790373963732e-01 1.677962288855836537e+00 3.282421875000000000e+01
1.412946803000000073e+06 -7.630212862704696675e-02 -3.986240391721154741e-02 -1.885245409895996288e-02 9.594911639176851637e+00 -2.931037535359206636e-01 1.686488579106172114e+00 3.281445312500000000e+01
